299.709747,1106
300.331055,1059
300.952759,1249
301.57486,1196
302.1974,1237
302.8203,1301
303.443665,1137
304.0674,1116
304.6916,1103
305.316162,1096
305.941132,1161
306.566528,1204
307.192352,1152
307.818573,1265
308.4452,1117
309.072235,1120
309.699677,1034
310.3275,1086
310.95578,1104
311.584473,1052
312.213562,1106
312.843048,1024
313.472961,1114
314.103271,1245
314.734,1364
315.365143,1078
315.996674,1233
316.628632,1132
317.261,1136
317.893768,1160
318.526947,1129
319.160553,1202
319.794556,1284
320.428955,1085
321.063782,1200
321.699,1048
322.334656,1116
322.9707,1130
323.607147,1059
324.244019,1358
324.8813,1162
325.518951,1018
326.157043,1030
326.795563,1081
327.434479,1305
328.0738,1123
328.7135,1114
329.353638,1165
329.994171,1015
330.635132,1083
331.2765,1098
331.918243,1181
332.560425,1093
333.203,1098
333.846,1088
334.4894,1244
335.1332,1067
335.7774,1166
336.422028,972
337.067078,1091
337.7125,1292
338.358337,1040
339.0046,1199
339.651245,1078
340.29834,1085
340.9458,1261
341.5937,1081
342.241974,1306
342.890656,1091
343.539764,1134
344.18927,1148
344.839172,1056
345.4895,1065
346.140228,1257
346.791351,1065
347.4429,1310
348.094849,1147
348.7472,1152
349.399963,1114
350.053131,1086
350.7067,1072
351.3607,1195
352.015045,1118
352.669861,1027
353.325043,1100
353.980652,1142
354.636658,1210
355.29306,1080
355.94986,1175
356.6071,1087
357.2647,1131
357.92276,1136
358.581177,1085
359.240021,1118
359.8993,1256
360.558929,1214
361.219,1249
361.879456,1168
362.5403,1091
363.201569,1187
363.863251,1116
364.52533,1257
365.1878,1074
365.8507,1170
366.513977,982
367.177673,1242
367.841766,1183
368.5063,1225
369.171173,1148
369.8365,1105
370.5022,1224
371.1683,1334
371.834839,1206
372.50174,1096
373.169067,1152
373.8368,1207
374.5049,1051
375.173462,1103
375.842377,1141
376.511719,1164
377.181458,1266
377.8516,1076
378.522125,1110
379.193085,1258
379.864441,1110
380.536163,1025
381.2083,1287
381.880859,945
382.553833,1074
383.227173,1145
383.90094,1052
384.575073,1204
385.249634,1221
385.9246,1123
386.599976,1140
387.275726,1112
387.951874,1309
388.628448,1040
389.3054,1050
389.982758,1041
390.660522,1113
391.338684,1142
392.017242,1043
392.6962,1121
393.375549,1091
394.055328,1220
394.735474,1217
395.416046,1008
396.097,1133
396.778351,1147
397.4601,1223
398.142242,1127
398.8248,1071
399.507751,1038
400.1911,1175
400.874847,1262
401.559,1082
402.24353,1091
402.9285,1223
403.613831,1141
404.299561,1077
404.9857,1174
405.672241,1257
406.359161,1113
407.046478,1128
407.7342,1240
408.422333,1119
409.11084,1232
409.799744,1067
410.489075,1216
411.178772,1200
411.868866,1010
412.5594,1073
413.250275,1013
413.941559,1093
414.63324,1126
415.325317,1098
416.0178,1150
416.7107,1092
417.403961,1158
418.0976,1081
418.791656,1133
419.4861,1194
420.180969,1009
420.876221,983
421.571838,1094
422.267883,1166
422.9643,1233
423.661133,1300
424.358337,1252
425.055939,1272
425.753937,1150
426.452332,1171
427.151123,1160
427.850281,976
428.549866,1096
429.249817,1140
429.9502,1082
430.65094,998
431.352081,1185
432.053619,997
432.755554,1129
433.457855,1271
434.160583,982
434.863678,998
435.567169,1012
436.271057,1046
436.9753,1222
437.68,1116
438.38504,1020
439.090485,1116
439.796326,1255
440.502563,1199
441.2092,1092
441.9162,1228
442.6236,1057
443.3314,1105
444.039551,1376
444.748138,1096
445.4571,1266
446.166443,1025
446.8762,1025
447.5863,1071
448.2968,1008
449.007721,1154
449.719,1169
450.4307,1203
451.142761,1069
451.8552,1182
452.568054,1044
453.281281,1033
453.9949,1142
454.7089,1184
455.4233,1146
456.138062,1144
456.853241,1136
457.5688,1194
458.284729,1138
459.001068,1129
459.717773,1137
460.434875,1269
461.152344,986
461.8702,1076
462.58847,1061
463.3071,1138
464.026123,934
464.745544,1015
465.465332,1162
466.185516,985
466.906067,1145
467.627,1161
468.348358,1147
469.070068,1040
469.792175,1279
470.514648,1173
471.237518,1125
471.960754,1160
472.6844,1186
473.408417,1197
474.1328,1123
474.8576,1284
475.582764,1170
476.3083,1178
477.034241,1081
477.760529,1242
478.4872,1165
479.2143,997
479.941742,1112
480.6696,1073
481.3978,1187
482.1264,1348
482.855377,1032
483.584717,1067
484.314453,1124
485.0446,1144
485.7751,1134
486.505951,1207
487.2372,1148
487.968842,1245
488.700867,1213
489.433258,1005
490.166016,1010
490.89917,1101
491.6327,1199
492.3666,1144
493.1009,1168
493.835541,1089
494.5706,1028
495.306,1134
496.0418,1098
496.777954,1257
497.514526,1096
498.251434,1272
498.988739,1101
499.7264,1136
500.464478,1096
501.2029,1245
501.9417,1076
502.680878,1114
503.420441,1259
504.16037,1081
504.900665,1116
505.641357,1105
506.382416,1180
507.12384,1160
507.865631,1184
508.607819,1203
509.350372,1094
510.0933,1212
510.836578,1185
511.580261,925
512.3243,1102
513.0687,1094
513.8135,1203
514.558655,1106
515.3042,1110
516.0501,1189
516.7964,1046
517.543,1001
518.290039,1164
519.0374,1082
519.7852,1020
520.5333,1036
521.2818,1088
522.0307,1137
522.779968,1118
523.529541,973
524.279541,1124
525.0299,1093
525.7806,1098
526.5317,1196
527.283142,1063
528.035,1109
528.7872,1283
529.539734,1161
530.292664,1128
531.045959,1115
531.7996,1080
532.55365,1175
533.308044,1214
534.0628,1184
534.818,1159
535.5735,1108
536.329346,1093
537.0856,1172
537.842163,1157
538.5991,1126
539.356445,1155
540.114136,1136
540.8722,1076
541.6306,989
542.3894,1015
543.14856,1159
543.9081,1334
544.667969,1263
545.4282,1062
546.188843,1049
546.949768,1063
547.7111,1158
548.472839,1162
549.234863,1198
549.9973,1548
550.7601,1256
551.523254,1003
552.286743,1197
553.0506,1211
553.8148,1110
554.5794,1019
555.34436,1189
556.1097,985
556.875366,1102
557.6414,1460
558.4078,1092
559.174561,1075
559.94165,1238
560.7091,1107
561.4769,1234
562.2451,1073
563.0137,1081
563.7826,1086
564.5518,1240
565.3215,1060
566.091431,1079
566.861755,1017
567.632446,1696
568.4035,1087
569.1749,1103
569.946655,1096
570.7188,1127
571.4913,1198
572.2641,1128
573.0373,1022
573.810852,1100
574.5847,1209
575.358948,1287
576.133545,1324
576.9085,1110
577.683838,1071
578.459534,1067
579.235535,1026
580.0119,1142
580.788635,1121
581.5657,1024
582.34314,1197
583.1209,1166
583.899048,1070
584.677551,1123
585.45636,1066
586.2356,1183
587.0151,1024
587.795,1049
588.575256,1158
589.355835,945
590.1368,1041
590.9181,1107
591.6997,1080
592.4817,1069
593.264038,1203
594.046753,1196
594.8298,1169
595.613159,1167
596.3969,880
597.180969,1177
597.9654,1044
598.7502,1133
599.5353,1157
600.3208,1159
601.106567,1072
601.892761,953
602.67926,1090
603.4661,1184
604.253357,1122
605.0409,1149
605.8288,1124
606.617,1069
607.4056,1172
608.1945,1106
608.983765,1203
609.7734,1166
610.563354,1088
611.353638,1107
612.1443,1217
612.9353,1168
613.7266,1141
614.5183,1049
615.3103,1299
616.102661,1344
616.8954,1102
617.6884,1085
618.48175,1072
619.2755,1107
620.0696,1146
620.863953,1218
621.6587,1073
622.4538,1182
623.2492,1183
624.045,1382
624.841064,1177
625.6375,1213
626.434265,1112
627.2314,1312
628.0289,1131
628.82666,1079
629.624756,1111
630.4232,1192
631.222046,1138
632.0212,1081
632.8206,1161
633.6204,1156
634.4206,1158
635.221069,1148
636.0219,1132
636.823059,971
637.6245,1184
638.426331,977
639.2285,1097
640.031,1186
640.8338,1144
641.636963,1200
642.4404,1104
643.244263,1192
644.0484,1313
644.8529,1124
645.6577,983
646.4629,975
647.2684,1151
648.074158,1115
648.8803,1222
649.686768,1212
650.4936,1167
651.3007,1041
652.1082,1156
652.915955,1086
653.7241,1241
654.532532,1142
655.3413,1138
656.150452,1153
656.9599,1156
657.769653,1144
658.5797,1083
659.390137,1070
660.2009,1250
661.011963,1093
661.823364,1154
662.6351,1072
663.447144,1030
664.2595,1121
665.0722,1197
665.885254,1179
666.6986,1149
667.512268,1031
668.3263,1008
669.1406,1010
669.955261,1033
670.7702,1146
671.5855,1191
672.4011,1137
673.2171,1102
674.0333,1122
674.8499,1145
675.6668,1191
676.4841,1196
677.301636,1182
678.1195,1233
678.9377,1237
679.756165,1014
680.575,1006
681.394165,1105
682.2136,1083
683.0334,1193
683.8535,1060
684.67395,1142
685.4947,1041
686.315735,1106
687.137146,1106
687.9588,1045
688.7808,1161
689.603149,1129
690.4258,1240
691.2488,1033
692.072,1041
692.8956,1148
693.719543,1054
694.543762,1191
695.3683,1038
696.1932,1226
697.0183,1004
697.8438,1227
698.6696,1141
699.4957,1103
700.322144,1007
701.148865,1222
701.9759,1197
702.8033,1260
703.6309,1073
704.4589,1035
705.2872,1111
706.1158,1106
706.9447,1205
707.7739,1153
708.603455,1046
709.4333,956
710.2634,1134
711.093933,1117
711.9247,1143
712.755737,1308
713.587158,1192
714.4188,1187
715.250854,1183
716.0831,1080
716.9158,987
717.748657,1042
718.5819,1164
719.4154,1248
720.249268,1095
721.083435,1147
721.917847,1134
722.7526,1103
723.587646,1096
724.423035,1108
725.2587,1216
726.094666,1105
726.930969,1199
727.7675,1080
728.6044,1175
729.4416,1261
730.279053,1002
731.1168,971
731.954956,1279
732.793335,1107
733.632,1163
734.471,1122
735.3103,1114
736.149841,1059
736.989746,987
737.829956,1197
738.6704,1008
739.5112,1044
740.3523,1199
741.193665,1151
742.035339,1125
742.8773,1091
743.7196,1108
744.562134,1171
745.405,1001
746.248169,1058
747.0916,1104
747.935364,1117
748.7794,1231
749.6238,1107
750.4684,1074
751.313354,1170
752.158569,1136
753.0041,1226
753.8499,1046
754.696,1041
755.5424,1126
756.3891,1119
757.2361,1136
758.0833,1214
758.9309,973
759.778748,1137
760.6269,1059
761.475342,1061
762.324036,1303
763.173035,1092
764.022339,1155
764.871948,1115
765.721863,1083
766.572,1046
767.4225,1197
768.2732,1184
769.124268,1150
769.9756,1181
770.827148,1075
771.6791,1030
772.53125,1111
773.3837,1120
774.23645,1188
775.0895,1107
775.9428,1084
776.7964,1160
777.6503,1238
778.504456,1223
779.358948,1239
780.2137,1172
781.068665,1028
781.924,1201
782.7796,1125
783.635437,1111
784.4916,1047
785.348,1114
786.2047,1199
787.0617,1232
787.919,1195
788.77655,1136
789.6344,1146
790.4925,1141
791.3509,1121
792.209534,1119
793.0685,1147
793.927734,1044
794.787231,1153
795.647034,1056
796.5071,1078
797.3674,1063
798.228,1040
799.088867,1010
799.9501,1117
800.811462,1249
801.6732,1129
802.535156,1283
803.397461,1106
804.259949,1121
805.1228,1209
805.98584,1216
806.849243,1078
807.7128,1242
808.5767,1101
809.4409,1172
810.305359,1164
811.170044,953
812.035034,975
812.900269,1120
813.7658,1205
814.6316,1201
815.4977,1014
816.364,1101
817.2306,957
818.0975,1228
818.9646,1258
819.832031,1068
820.6997,1078
821.5676,1113
822.435852,1221
823.3043,1252
824.173035,1044
825.042053,1086
825.9113,1166
826.7808,1108
827.650635,1196
828.5207,1068
829.391052,1043
830.2616,1173
831.132446,1090
832.0036,1162
832.875,1084
833.7466,1120
834.6185,998
835.490662,1171
836.3631,1144
837.2358,1144
838.108765,1215
838.981934,1366
839.8554,1098
840.7291,1175
841.603149,1254
842.477356,1090
843.351868,1253
844.2266,1184
845.1017,1182
845.9769,1202
846.8525,1050
847.7283,1138
848.6043,1027
849.4806,1161
850.3572,1101
851.234,1106
852.111,1090
852.9884,1204
853.865967,1187
854.7438,1132
855.6219,1094
856.5002,1097
857.3788,1182
858.2576,1144
859.1367,1199
860.0161,1001
860.8957,1078
861.7755,1122
862.65564,1231
863.536,1009
864.416565,1126
865.2974,1041
866.1785,1161
867.0599,1106
867.941467,1140
868.8233,1177
869.705444,1174
870.587769,1090
871.470337,1293
872.353149,951
873.236267,1098
874.119568,1153
875.0032,1027
875.886963,1078
876.771057,980
877.655334,974
878.5399,1170
879.4247,1047
880.309753,1172
881.195,1168
882.080566,1142
882.9663,1069
883.8523,1044
884.7386,1290
885.625061,1206
886.5118,1130
887.3988,1036
888.286,1227
889.173462,1097
890.061157,1294
890.9491,1084
891.8372,1009
892.725647,1082
893.6143,1078
894.5032,1101
895.392334,1015
896.2817,1028
897.171265,1211
898.0611,1125
898.9512,1235
899.8415,1088
900.732056,1044
901.6228,1013
902.5138,1159
903.4051,1268
904.2966,1127
905.188232,1132
906.0802,1283
906.972351,1119
907.8648,1192
908.757446,1044
909.6503,951
910.5434,1047
911.436768,1136
912.3303,1065
913.2241,1199
914.1181,1285
915.0124,1011
915.90686,1126
916.8016,1044
917.696533,1116
918.5917,1138
919.487061,1246
920.3827,1297
921.278564,1136
922.1746,1115
923.0709,1058
923.967468,1132
924.8642,1105
925.761169,1409
926.6584,1031
927.555847,1209
928.4535,1102
929.3514,1100
930.249451,1185
931.147766,1126
932.0463,1118
932.945068,1137
933.844055,1231
934.7433,1186
935.6427,1226
936.542358,1035
937.4422,1144
938.3423,1104
939.2426,1231
940.1431,1123
941.0439,1117
941.9448,1175
942.846,1226
943.747437,1177
944.649048,1065
945.550842,1121
946.452942,1185
947.355164,1248
948.2576,1143
949.160339,1184
950.063232,1067
950.9664,1134
951.869751,1071
952.773254,1242
953.677063,1142
954.581,1080
955.4852,1170
956.3896,1187
957.2942,1187
958.199036,1054
959.104065,1276
960.009338,1101
960.9148,961
961.820435,1260
962.7263,1178
963.6324,1077
964.5387,1176
965.4452,1080
966.3519,1029
967.25885,1144
968.165955,1196
969.0733,1148
969.980835,1179
970.88855,1034
971.7965,1160
972.7047,1101
973.613037,1065
974.5216,1160
975.430359,1057
976.339355,1149
977.248535,1127
978.1579,1077
979.0675,1217
979.9773,1076
980.887268,1181
981.7974,1247
982.7078,1212
983.6184,1075
984.529236,1169
985.4402,1057
986.3514,1065
987.262756,1012
988.1744,1078
989.0861,1239
989.9981,1028
990.910339,1158
991.8227,1117
992.7353,1189
993.648,1154
994.561,1212
995.4742,1086
996.3875,1075
997.3011,1297
998.214844,1160
999.1288,1226
1000.04291,1212
